Rb1,5p3/2,,,
Wavelength,alpha_0,     Uncertainty,alpha_2,     Uncertainty
600.00000,-45.20,10.06,-70.23,2.97
600.02000,-45.29,10.06,-70.21,2.97
600.04000,-45.38,10.06,-70.19,2.97
600.06000,-45.48,10.07,-70.17,2.97
600.08000,-45.57,10.07,-70.15,2.97
600.10000,-45.67,10.07,-70.13,2.97
600.12000,-45.76,10.07,-70.11,2.97
600.14000,-45.85,10.08,-70.09,2.97
600.16000,-45.95,10.08,-70.08,2.97
600.18000,-46.04,10.08,-70.06,2.97
600.20000,-46.14,10.08,-70.04,2.97
600.22000,-46.23,10.09,-70.02,2.97
600.24000,-46.33,10.09,-70.00,2.97
600.26000,-46.42,10.09,-69.97,2.97
600.28000,-46.51,10.09,-69.95,2.97
600.30000,-46.61,10.10,-69.93,2.97
600.32000,-46.70,10.10,-69.91,2.97
600.34000,-46.80,10.10,-69.89,2.97
600.36000,-46.89,10.10,-69.87,2.97
600.38000,-46.99,10.10,-69.85,2.97
600.40000,-47.08,10.11,-69.83,2.97
600.42000,-47.18,10.11,-69.81,2.97
600.44000,-47.28,10.11,-69.79,2.97
600.46000,-47.37,10.11,-69.77,2.97
600.48000,-47.47,10.12,-69.75,2.97
600.50000,-47.56,10.12,-69.73,2.97
600.52000,-47.66,10.12,-69.71,2.97
600.54000,-47.75,10.12,-69.69,2.97
600.56000,-47.85,10.13,-69.66,2.97
600.58000,-47.95,10.13,-69.64,2.97
600.60000,-48.04,10.13,-69.62,2.97
600.62000,-48.14,10.13,-69.60,2.97
600.64000,-48.23,10.14,-69.58,2.97
600.66000,-48.33,10.14,-69.56,2.97
600.68000,-48.43,10.14,-69.54,2.97
600.70000,-48.52,10.14,-69.51,2.97
600.72000,-48.62,10.15,-69.49,2.97
600.74000,-48.72,10.15,-69.47,2.97
600.76000,-48.81,10.15,-69.45,2.97
600.78000,-48.91,10.15,-69.43,2.97
600.80000,-49.01,10.16,-69.40,2.97
600.82000,-49.11,10.16,-69.38,2.97
600.84000,-49.20,10.16,-69.36,2.97
600.86000,-49.30,10.16,-69.34,2.97
600.88000,-49.40,10.16,-69.32,2.97
600.90000,-49.49,10.17,-69.29,2.97
600.92000,-49.59,10.17,-69.27,2.97
600.94000,-49.69,10.17,-69.25,2.97
600.96000,-49.79,10.17,-69.23,2.97
600.98000,-49.89,10.18,-69.20,2.97
601.00000,-49.98,10.18,-69.18,2.97
601.02000,-50.08,10.18,-69.16,2.97
601.04000,-50.18,10.18,-69.13,2.97
601.06000,-50.28,10.19,-69.11,2.97
601.08000,-50.38,10.19,-69.09,2.97
601.10000,-50.48,10.19,-69.07,2.97
601.12000,-50.57,10.19,-69.04,2.97
601.14000,-50.67,10.20,-69.02,2.97
601.16000,-50.77,10.20,-69.00,2.97
601.18000,-50.87,10.20,-68.97,2.97
601.20000,-50.97,10.20,-68.95,2.97
601.22000,-51.07,10.21,-68.93,2.97
601.24000,-51.17,10.21,-68.90,2.97
601.26000,-51.27,10.21,-68.88,2.97
601.28000,-51.37,10.21,-68.85,2.97
601.30000,-51.47,10.22,-68.83,2.97
601.32000,-51.57,10.22,-68.81,2.97
601.34000,-51.67,10.22,-68.78,2.97
601.36000,-51.77,10.22,-68.76,2.97
601.38000,-51.87,10.22,-68.73,2.97
601.40000,-51.97,10.23,-68.71,2.97
601.42000,-52.07,10.23,-68.68,2.97
601.44000,-52.17,10.23,-68.66,2.97
601.46000,-52.27,10.23,-68.64,2.97
601.48000,-52.37,10.24,-68.61,2.97
601.50000,-52.47,10.24,-68.59,2.97
601.52000,-52.57,10.24,-68.56,2.97
601.54000,-52.67,10.24,-68.54,2.97
601.56000,-52.77,10.25,-68.51,2.97
601.58000,-52.88,10.25,-68.49,2.97
601.60000,-52.98,10.25,-68.46,2.97
601.62000,-53.08,10.25,-68.44,2.97
601.64000,-53.18,10.26,-68.41,2.97
601.66000,-53.28,10.26,-68.39,2.97
601.68000,-53.38,10.26,-68.36,2.97
601.70000,-53.49,10.26,-68.33,2.97
601.72000,-53.59,10.27,-68.31,2.97
601.74000,-53.69,10.27,-68.28,2.97
601.76000,-53.79,10.27,-68.26,2.97
601.78000,-53.89,10.27,-68.23,2.97
601.80000,-54.00,10.28,-68.20,2.97
601.82000,-54.10,10.28,-68.18,2.97
601.84000,-54.20,10.28,-68.15,2.97
601.86000,-54.31,10.28,-68.13,2.97
601.88000,-54.41,10.29,-68.10,2.97
601.90000,-54.51,10.29,-68.07,2.97
601.92000,-54.62,10.29,-68.05,2.97
601.94000,-54.72,10.29,-68.02,2.97
601.96000,-54.82,10.30,-67.99,2.97
601.98000,-54.93,10.30,-67.97,2.97
602.00000,-55.03,10.30,-67.94,2.97
602.02000,-55.13,10.30,-67.91,2.97
602.04000,-55.24,10.31,-67.88,2.97
602.06000,-55.34,10.31,-67.86,2.97
602.08000,-55.45,10.31,-67.83,2.97
602.10000,-55.55,10.31,-67.80,2.97
602.12000,-55.66,10.32,-67.77,2.97
602.14000,-55.76,10.32,-67.75,2.97
602.16000,-55.87,10.32,-67.72,2.97
602.18000,-55.97,10.32,-67.69,2.97
602.20000,-56.08,10.32,-67.66,2.97
602.22000,-56.18,10.33,-67.64,2.97
602.24000,-56.29,10.33,-67.61,2.97
602.26000,-56.39,10.33,-67.58,2.97
602.28000,-56.50,10.33,-67.55,2.97
602.30000,-56.60,10.34,-67.52,2.97
602.32000,-56.71,10.34,-67.49,2.97
602.34000,-56.82,10.34,-67.47,2.97
602.36000,-56.92,10.34,-67.44,2.97
602.38000,-57.03,10.35,-67.41,2.97
602.40000,-57.14,10.35,-67.38,2.97
602.42000,-57.24,10.35,-67.35,2.97
602.44000,-57.35,10.35,-67.32,2.97
602.46000,-57.46,10.36,-67.29,2.97
602.48000,-57.56,10.36,-67.26,2.97
602.50000,-57.67,10.36,-67.23,2.97
602.52000,-57.78,10.36,-67.20,2.97
602.54000,-57.89,10.37,-67.17,2.97
602.56000,-57.99,10.37,-67.14,2.97
602.58000,-58.10,10.37,-67.11,2.97
602.60000,-58.21,10.37,-67.08,2.97
602.62000,-58.32,10.38,-67.05,2.98
602.64000,-58.43,10.38,-67.02,2.98
602.66000,-58.54,10.38,-66.99,2.98
602.68000,-58.64,10.38,-66.96,2.98
602.70000,-58.75,10.39,-66.93,2.98
602.72000,-58.86,10.39,-66.90,2.98
602.74000,-58.97,10.39,-66.87,2.98
602.76000,-59.08,10.39,-66.84,2.98
602.78000,-59.19,10.40,-66.81,2.98
602.80000,-59.30,10.40,-66.78,2.98
602.82000,-59.41,10.40,-66.74,2.98
602.84000,-59.52,10.40,-66.71,2.98
602.86000,-59.63,10.41,-66.68,2.98
602.88000,-59.74,10.41,-66.65,2.98
602.90000,-59.85,10.41,-66.62,2.98
602.92000,-59.96,10.41,-66.59,2.98
602.94000,-60.07,10.42,-66.55,2.98
602.96000,-60.18,10.42,-66.52,2.98
602.98000,-60.29,10.42,-66.49,2.98
603.00000,-60.41,10.42,-66.46,2.98
603.02000,-60.52,10.43,-66.43,2.98
603.04000,-60.63,10.43,-66.39,2.98
603.06000,-60.74,10.43,-66.36,2.98
603.08000,-60.85,10.43,-66.33,2.98
603.10000,-60.96,10.44,-66.29,2.98
603.12000,-61.08,10.44,-66.26,2.98
603.14000,-61.19,10.44,-66.23,2.98
603.16000,-61.30,10.44,-66.19,2.98
603.18000,-61.41,10.45,-66.16,2.98
603.20000,-61.53,10.45,-66.13,2.98
603.22000,-61.64,10.45,-66.09,2.98
603.24000,-61.75,10.45,-66.06,2.98
603.26000,-61.87,10.46,-66.03,2.98
603.28000,-61.98,10.46,-65.99,2.98
603.30000,-62.09,10.46,-65.96,2.98
603.32000,-62.21,10.46,-65.92,2.98
603.34000,-62.32,10.47,-65.89,2.98
603.36000,-62.44,10.47,-65.85,2.98
603.38000,-62.55,10.47,-65.82,2.98
603.40000,-62.67,10.47,-65.78,2.98
603.42000,-62.78,10.48,-65.75,2.98
603.44000,-62.90,10.48,-65.71,2.98
603.46000,-63.01,10.48,-65.68,2.98
603.48000,-63.13,10.48,-65.64,2.98
603.50000,-63.24,10.49,-65.61,2.98
603.52000,-63.36,10.49,-65.57,2.98
603.54000,-63.47,10.49,-65.54,2.98
603.56000,-63.59,10.50,-65.50,2.98
603.58000,-63.71,10.50,-65.46,2.98
603.60000,-63.82,10.50,-65.43,2.98
603.62000,-63.94,10.50,-65.39,2.98
603.64000,-64.06,10.51,-65.36,2.98
603.66000,-64.17,10.51,-65.32,2.98
603.68000,-64.29,10.51,-65.28,2.98
603.70000,-64.41,10.51,-65.25,2.98
603.72000,-64.53,10.52,-65.21,2.98
603.74000,-64.64,10.52,-65.17,2.98
603.76000,-64.76,10.52,-65.13,2.98
603.78000,-64.88,10.52,-65.10,2.98
603.80000,-65.00,10.53,-65.06,2.98
603.82000,-65.12,10.53,-65.02,2.98
603.84000,-65.24,10.53,-64.98,2.98
603.86000,-65.36,10.53,-64.94,2.98
603.88000,-65.48,10.54,-64.91,2.98
603.90000,-65.60,10.54,-64.87,2.98
603.92000,-65.72,10.54,-64.83,2.98
603.94000,-65.84,10.54,-64.79,2.99
603.96000,-65.96,10.55,-64.75,2.99
603.98000,-66.08,10.55,-64.71,2.99
604.00000,-66.20,10.55,-64.67,2.99
604.02000,-66.32,10.55,-64.63,2.99
604.04000,-66.44,10.56,-64.59,2.99
604.06000,-66.56,10.56,-64.56,2.99
604.08000,-66.68,10.56,-64.52,2.99
604.10000,-66.80,10.56,-64.48,2.99
604.12000,-66.92,10.57,-64.44,2.99
604.14000,-67.05,10.57,-64.40,2.99
604.16000,-67.17,10.57,-64.35,2.99
604.18000,-67.29,10.58,-64.31,2.99
604.20000,-67.41,10.58,-64.27,2.99
604.22000,-67.54,10.58,-64.23,2.99
604.24000,-67.66,10.58,-64.19,2.99
604.26000,-67.78,10.59,-64.15,2.99
604.28000,-67.91,10.59,-64.11,2.99
604.30000,-68.03,10.59,-64.07,2.99
604.32000,-68.15,10.59,-64.03,2.99
604.34000,-68.28,10.60,-63.98,2.99
604.36000,-68.40,10.60,-63.94,2.99
604.38000,-68.53,10.60,-63.90,2.99
604.40000,-68.65,10.60,-63.86,2.99
604.42000,-68.78,10.61,-63.81,2.99
604.44000,-68.90,10.61,-63.77,2.99
604.46000,-69.03,10.61,-63.73,2.99
604.48000,-69.16,10.61,-63.69,2.99
604.50000,-69.28,10.62,-63.64,2.99
604.52000,-69.41,10.62,-63.60,2.99
604.54000,-69.53,10.62,-63.55,2.99
604.56000,-69.66,10.62,-63.51,2.99
604.58000,-69.79,10.63,-63.47,2.99
604.60000,-69.92,10.63,-63.42,2.99
604.62000,-70.04,10.63,-63.38,2.99
604.64000,-70.17,10.64,-63.33,2.99
604.66000,-70.30,10.64,-63.29,2.99
604.68000,-70.43,10.64,-63.24,2.99
604.70000,-70.56,10.64,-63.20,2.99
604.72000,-70.68,10.65,-63.15,2.99
604.74000,-70.81,10.65,-63.11,2.99
604.76000,-70.94,10.65,-63.06,2.99
604.78000,-71.07,10.65,-63.02,2.99
604.80000,-71.20,10.66,-62.97,2.99
604.82000,-71.33,10.66,-62.92,2.99
604.84000,-71.46,10.66,-62.88,2.99
604.86000,-71.59,10.66,-62.83,2.99
604.88000,-71.72,10.67,-62.78,3.00
604.90000,-71.86,10.67,-62.74,3.00
604.92000,-71.99,10.67,-62.69,3.00
604.94000,-72.12,10.68,-62.64,3.00
604.96000,-72.25,10.68,-62.60,3.00
604.98000,-72.38,10.68,-62.55,3.00
605.00000,-72.51,10.68,-62.50,3.00
605.02000,-72.65,10.69,-62.45,3.00
605.04000,-72.78,10.69,-62.40,3.00
605.06000,-72.91,10.69,-62.35,3.00
605.08000,-73.05,10.69,-62.31,3.00
605.10000,-73.18,10.70,-62.26,3.00
605.12000,-73.32,10.70,-62.21,3.00
605.14000,-73.45,10.70,-62.16,3.00
605.16000,-73.58,10.70,-62.11,3.00
605.18000,-73.72,10.71,-62.06,3.00
605.20000,-73.85,10.71,-62.01,3.00
605.22000,-73.99,10.71,-61.96,3.00
605.24000,-74.13,10.72,-61.91,3.00
605.26000,-74.26,10.72,-61.86,3.00
605.28000,-74.40,10.72,-61.81,3.00
605.30000,-74.53,10.72,-61.76,3.00
605.32000,-74.67,10.73,-61.70,3.00
605.34000,-74.81,10.73,-61.65,3.00
605.36000,-74.95,10.73,-61.60,3.00
605.38000,-75.08,10.73,-61.55,3.00
605.40000,-75.22,10.74,-61.50,3.00
605.42000,-75.36,10.74,-61.44,3.00
605.44000,-75.50,10.74,-61.39,3.00
605.46000,-75.64,10.75,-61.34,3.00
605.48000,-75.78,10.75,-61.28,3.00
605.50000,-75.92,10.75,-61.23,3.00
605.52000,-76.06,10.75,-61.18,3.00
605.54000,-76.20,10.76,-61.12,3.00
605.56000,-76.34,10.76,-61.07,3.00
605.58000,-76.48,10.76,-61.02,3.00
605.60000,-76.62,10.76,-60.96,3.00
605.62000,-76.76,10.77,-60.91,3.00
605.64000,-76.90,10.77,-60.85,3.01
605.66000,-77.04,10.77,-60.80,3.01
605.68000,-77.19,10.78,-60.74,3.01
605.70000,-77.33,10.78,-60.68,3.01
605.72000,-77.47,10.78,-60.63,3.01
605.74000,-77.62,10.78,-60.57,3.01
605.76000,-77.76,10.79,-60.52,3.01
605.78000,-77.90,10.79,-60.46,3.01
605.80000,-78.05,10.79,-60.40,3.01
605.82000,-78.19,10.80,-60.34,3.01
605.84000,-78.34,10.80,-60.29,3.01
605.86000,-78.48,10.80,-60.23,3.01
605.88000,-78.63,10.80,-60.17,3.01
605.90000,-78.77,10.81,-60.11,3.01
605.92000,-78.92,10.81,-60.05,3.01
605.94000,-79.07,10.81,-60.00,3.01
605.96000,-79.21,10.81,-59.94,3.01
605.98000,-79.36,10.82,-59.88,3.01
606.00000,-79.51,10.82,-59.82,3.01
606.02000,-79.66,10.82,-59.76,3.01
606.04000,-79.81,10.83,-59.70,3.01
606.06000,-79.95,10.83,-59.64,3.01
606.08000,-80.10,10.83,-59.58,3.01
606.10000,-80.25,10.83,-59.52,3.01
606.12000,-80.40,10.84,-59.45,3.01
606.14000,-80.55,10.84,-59.39,3.01
606.16000,-80.70,10.84,-59.33,3.01
606.18000,-80.85,10.85,-59.27,3.01
606.20000,-81.01,10.85,-59.21,3.01
606.22000,-81.16,10.85,-59.14,3.01
606.24000,-81.31,10.85,-59.08,3.01
606.26000,-81.46,10.86,-59.02,3.01
606.28000,-81.61,10.86,-58.95,3.02
606.30000,-81.77,10.86,-58.89,3.02
606.32000,-81.92,10.87,-58.83,3.02
606.34000,-82.07,10.87,-58.76,3.02
606.36000,-82.23,10.87,-58.70,3.02
606.38000,-82.38,10.87,-58.63,3.02
606.40000,-82.54,10.88,-58.57,3.02
606.42000,-82.69,10.88,-58.50,3.02
606.44000,-82.85,10.88,-58.43,3.02
606.46000,-83.01,10.89,-58.37,3.02
606.48000,-83.16,10.89,-58.30,3.02
606.50000,-83.32,10.89,-58.23,3.02
606.52000,-83.48,10.89,-58.17,3.02
606.54000,-83.63,10.90,-58.10,3.02
606.56000,-83.79,10.90,-58.03,3.02
606.58000,-83.95,10.90,-57.96,3.02
606.60000,-84.11,10.91,-57.90,3.02
606.62000,-84.27,10.91,-57.83,3.02
606.64000,-84.43,10.91,-57.76,3.02
606.66000,-84.59,10.91,-57.69,3.02
606.68000,-84.75,10.92,-57.62,3.02
606.70000,-84.91,10.92,-57.55,3.02
606.72000,-85.07,10.92,-57.48,3.02
606.74000,-85.23,10.93,-57.41,3.02
606.76000,-85.40,10.93,-57.34,3.02
606.78000,-85.56,10.93,-57.26,3.02
606.80000,-85.72,10.93,-57.19,3.02
606.82000,-85.89,10.94,-57.12,3.02
606.84000,-86.05,10.94,-57.05,3.03
606.86000,-86.22,10.94,-56.98,3.03
606.88000,-86.38,10.95,-56.90,3.03
606.90000,-86.55,10.95,-56.83,3.03
606.92000,-86.71,10.95,-56.75,3.03
606.94000,-86.88,10.96,-56.68,3.03
606.96000,-87.05,10.96,-56.61,3.03
606.98000,-87.21,10.96,-56.53,3.03
607.00000,-87.38,10.96,-56.46,3.03
607.02000,-87.55,10.97,-56.38,3.03
607.04000,-87.72,10.97,-56.30,3.03
607.06000,-87.89,10.97,-56.23,3.03
607.08000,-88.06,10.98,-56.15,3.03
607.10000,-88.23,10.98,-56.07,3.03
607.12000,-88.40,10.98,-56.00,3.03
607.14000,-88.57,10.98,-55.92,3.03
607.16000,-88.74,10.99,-55.84,3.03
607.18000,-88.91,10.99,-55.76,3.03
607.20000,-89.08,10.99,-55.68,3.03
607.22000,-89.26,11.00,-55.60,3.03
607.24000,-89.43,11.00,-55.52,3.03
607.26000,-89.60,11.00,-55.44,3.03
607.28000,-89.78,11.01,-55.36,3.03
607.30000,-89.95,11.01,-55.28,3.03
607.32000,-90.13,11.01,-55.20,3.04
607.34000,-90.30,11.01,-55.12,3.04
607.36000,-90.48,11.02,-55.03,3.04
607.38000,-90.66,11.02,-54.95,3.04
607.40000,-90.84,11.02,-54.87,3.04
607.42000,-91.01,11.03,-54.78,3.04
607.44000,-91.19,11.03,-54.70,3.04
607.46000,-91.37,11.03,-54.61,3.04
607.48000,-91.55,11.04,-54.53,3.04
607.50000,-91.73,11.04,-54.44,3.04
607.52000,-91.91,11.04,-54.36,3.04
607.54000,-92.09,11.04,-54.27,3.04
607.56000,-92.27,11.05,-54.19,3.04
607.58000,-92.46,11.05,-54.10,3.04
607.60000,-92.64,11.05,-54.01,3.04
607.62000,-92.82,11.06,-53.92,3.04
607.64000,-93.01,11.06,-53.83,3.04
607.66000,-93.19,11.06,-53.75,3.04
607.68000,-93.38,11.07,-53.66,3.04
607.70000,-93.56,11.07,-53.57,3.04
607.72000,-93.75,11.07,-53.48,3.04
607.74000,-93.94,11.08,-53.39,3.04
607.76000,-94.12,11.08,-53.29,3.05
607.78000,-94.31,11.08,-53.20,3.05
607.80000,-94.50,11.08,-53.11,3.05
607.82000,-94.69,11.09,-53.02,3.05
607.84000,-94.88,11.09,-52.92,3.05
607.86000,-95.07,11.09,-52.83,3.05
607.88000,-95.26,11.10,-52.74,3.05
607.90000,-95.45,11.10,-52.64,3.05
607.92000,-95.64,11.10,-52.55,3.05
607.94000,-95.84,11.11,-52.45,3.05
607.96000,-96.03,11.11,-52.35,3.05
607.98000,-96.22,11.11,-52.26,3.05
608.00000,-96.42,11.12,-52.16,3.05
608.02000,-96.61,11.12,-52.06,3.05
608.04000,-96.81,11.12,-51.96,3.05
608.06000,-97.01,11.13,-51.87,3.05
608.08000,-97.20,11.13,-51.77,3.05
608.10000,-97.40,11.13,-51.67,3.05
608.12000,-97.60,11.13,-51.57,3.05
608.14000,-97.80,11.14,-51.46,3.06
608.16000,-98.00,11.14,-51.36,3.06
608.18000,-98.20,11.14,-51.26,3.06
608.20000,-98.40,11.15,-51.16,3.06
608.22000,-98.60,11.15,-51.06,3.06
608.24000,-98.81,11.15,-50.95,3.06
608.26000,-99.01,11.16,-50.85,3.06
608.28000,-99.21,11.16,-50.74,3.06
608.30000,-99.42,11.16,-50.64,3.06
608.32000,-99.62,11.17,-50.53,3.06
608.34000,-99.83,11.17,-50.42,3.06
608.36000,-100.04,11.17,-50.32,3.06
608.38000,-100.24,11.18,-50.21,3.06
608.40000,-100.45,11.18,-50.10,3.06
608.42000,-100.66,11.18,-49.99,3.06
608.44000,-100.87,11.19,-49.88,3.06
608.46000,-101.08,11.19,-49.77,3.06
608.48000,-101.29,11.19,-49.66,3.06
608.50000,-101.50,11.20,-49.55,3.07
608.52000,-101.72,11.20,-49.44,3.07
608.54000,-101.93,11.20,-49.32,3.07
608.56000,-102.14,11.21,-49.21,3.07
608.58000,-102.36,11.21,-49.10,3.07
608.60000,-102.57,11.21,-48.98,3.07
608.62000,-102.79,11.22,-48.87,3.07
608.64000,-103.01,11.22,-48.75,3.07
608.66000,-103.23,11.22,-48.63,3.07
608.68000,-103.44,11.23,-48.51,3.07
608.70000,-103.66,11.23,-48.40,3.07
608.72000,-103.88,11.23,-48.28,3.07
608.74000,-104.11,11.24,-48.16,3.07
608.76000,-104.33,11.24,-48.04,3.07
608.78000,-104.55,11.24,-47.92,3.07
608.80000,-104.77,11.25,-47.80,3.07
608.82000,-105.00,11.25,-47.67,3.08
608.84000,-105.22,11.25,-47.55,3.08
608.86000,-105.45,11.26,-47.43,3.08
608.88000,-105.68,11.26,-47.30,3.08
608.90000,-105.91,11.26,-47.18,3.08
608.92000,-106.14,11.27,-47.05,3.08
608.94000,-106.36,11.27,-46.92,3.08
608.96000,-106.60,11.27,-46.80,3.08
608.98000,-106.83,11.28,-46.67,3.08
609.00000,-107.06,11.28,-46.54,3.08
609.02000,-107.29,11.28,-46.41,3.08
609.04000,-107.53,11.29,-46.28,3.08
609.06000,-107.76,11.29,-46.15,3.08
609.08000,-108.00,11.29,-46.02,3.08
609.10000,-108.24,11.30,-45.88,3.09
609.12000,-108.47,11.30,-45.75,3.09
609.14000,-108.71,11.30,-45.61,3.09
609.16000,-108.95,11.31,-45.48,3.09
609.18000,-109.19,11.31,-45.34,3.09
609.20000,-109.43,11.31,-45.21,3.09
609.22000,-109.68,11.32,-45.07,3.09
609.24000,-109.92,11.32,-44.93,3.09
609.26000,-110.17,11.32,-44.79,3.09
609.28000,-110.41,11.33,-44.65,3.09
609.30000,-110.66,11.33,-44.51,3.09
609.32000,-110.91,11.33,-44.37,3.09
609.34000,-111.16,11.34,-44.22,3.09
609.36000,-111.41,11.34,-44.08,3.09
609.38000,-111.66,11.34,-43.93,3.10
609.40000,-111.91,11.35,-43.79,3.10
609.42000,-112.16,11.35,-43.64,3.10
609.44000,-112.41,11.35,-43.49,3.10
609.46000,-112.67,11.36,-43.34,3.10
609.48000,-112.93,11.36,-43.19,3.10
609.50000,-113.18,11.36,-43.04,3.10
609.52000,-113.44,11.37,-42.89,3.10
609.54000,-113.70,11.37,-42.74,3.10
609.56000,-113.96,11.38,-42.59,3.10
609.58000,-114.22,11.38,-42.43,3.10
609.60000,-114.49,11.38,-42.28,3.10
609.62000,-114.75,11.39,-42.12,3.11
609.64000,-115.02,11.39,-41.96,3.11
609.66000,-115.28,11.39,-41.80,3.11
609.68000,-115.55,11.40,-41.65,3.11
609.70000,-115.82,11.40,-41.48,3.11
609.72000,-116.09,11.40,-41.32,3.11
609.74000,-116.36,11.41,-41.16,3.11
609.76000,-116.63,11.41,-41.00,3.11
609.78000,-116.91,11.41,-40.83,3.11
609.80000,-117.18,11.42,-40.67,3.11
609.82000,-117.46,11.42,-40.50,3.11
609.84000,-117.73,11.43,-40.33,3.11
609.86000,-118.01,11.43,-40.16,3.12
609.88000,-118.29,11.43,-39.99,3.12
609.90000,-118.57,11.44,-39.82,3.12
609.92000,-118.86,11.44,-39.65,3.12
609.94000,-119.14,11.44,-39.47,3.12
609.96000,-119.43,11.45,-39.30,3.12
609.98000,-119.71,11.45,-39.12,3.12
610.00000,-120.00,11.46,-38.94,3.12
610.02000,-120.29,11.46,-38.77,3.12
610.04000,-120.58,11.46,-38.59,3.12
610.06000,-120.87,11.47,-38.40,3.13
610.08000,-121.17,11.47,-38.22,3.13
610.10000,-121.46,11.47,-38.04,3.13
610.12000,-121.76,11.48,-37.85,3.13
610.14000,-122.06,11.48,-37.67,3.13
610.16000,-122.35,11.48,-37.48,3.13
610.18000,-122.66,11.49,-37.29,3.13
610.20000,-122.96,11.49,-37.10,3.13
610.22000,-123.26,11.50,-36.91,3.13
610.24000,-123.57,11.50,-36.72,3.13
610.26000,-123.87,11.50,-36.52,3.14
610.28000,-124.18,11.51,-36.33,3.14
610.30000,-124.49,11.51,-36.13,3.14
610.32000,-124.80,11.52,-35.93,3.14
610.34000,-125.12,11.52,-35.73,3.14
610.36000,-125.43,11.52,-35.53,3.14
610.38000,-125.75,11.53,-35.33,3.14
610.40000,-126.07,11.53,-35.12,3.14
610.42000,-126.38,11.53,-34.92,3.14
610.44000,-126.71,11.54,-34.71,3.15
610.46000,-127.03,11.54,-34.50,3.15
610.48000,-127.35,11.55,-34.29,3.15
610.50000,-127.68,11.55,-34.08,3.15
610.52000,-128.01,11.55,-33.87,3.15
610.54000,-128.34,11.56,-33.65,3.15
610.56000,-128.67,11.56,-33.43,3.15
610.58000,-129.00,11.57,-33.22,3.15
610.60000,-129.34,11.57,-33.00,3.15
610.62000,-129.67,11.57,-32.77,3.16
610.64000,-130.01,11.58,-32.55,3.16
610.66000,-130.35,11.58,-32.33,3.16
610.68000,-130.70,11.58,-32.10,3.16
610.70000,-131.04,11.59,-31.87,3.16
610.72000,-131.39,11.59,-31.64,3.16
610.74000,-131.74,11.60,-31.41,3.16
610.76000,-132.09,11.60,-31.18,3.16
610.78000,-132.44,11.60,-30.94,3.17
610.80000,-132.79,11.61,-30.70,3.17
610.82000,-133.15,11.61,-30.46,3.17
610.84000,-133.51,11.62,-30.22,3.17
610.86000,-133.87,11.62,-29.98,3.17
610.88000,-134.23,11.63,-29.74,3.17
610.90000,-134.60,11.63,-29.49,3.17
610.92000,-134.96,11.63,-29.24,3.18
610.94000,-135.33,11.64,-28.99,3.18
610.96000,-135.70,11.64,-28.74,3.18
